Nov. 10, 2015   10:05:17
Linear Sweep Voltammetry
File: e:\10-11\ph17 mcf10a\acid\aa1.txt
Data Source:  Experiment
Instrument Model:  CHI1030C
Ref. Electrode: 
Header: 
Note: 

Init E (V) = -1
Final E (V) = 1
Scan Rate (V/s) = 0.1
Sample Interval (V) = 0.001
Quiet Time (sec) = 2
Sensitivity (A/V) = 1e-7

Ep = 0.606V
ip = 2.992e-9A
Ah = 2.477e-9C

Potential/V, Current/A

-1.000, -4.169e-10
-0.999, -3.639e-10
-0.998, -3.078e-10
-0.997, -4.201e-10
-0.996, -2.667e-10
-0.995, -3.837e-10
-0.994, -3.392e-10
-0.993, -2.790e-10
-0.992, -3.912e-10
-0.991, -2.377e-10
-0.990, -3.552e-10
-0.989, -3.128e-10
-0.988, -2.601e-10
-0.987, -3.749e-10
-0.986, -2.220e-10
-0.985, -3.416e-10
-0.984, -2.972e-10
-0.983, -2.528e-10
-0.982, -3.674e-10
-0.981, -2.157e-10
-0.980, -3.377e-10
-0.979, -2.972e-10
-0.978, -2.551e-10
-0.977, -3.701e-10
-0.976, -2.286e-10
-0.975, -3.626e-10
-0.974, -3.170e-10
-0.973, -2.695e-10
-0.972, -3.597e-10
-0.971, -1.906e-10
-0.970, -3.091e-10
-0.969, -2.603e-10
-0.968, -2.122e-10
-0.967, -3.290e-10
-0.966, -1.778e-10
-0.965, -2.996e-10
-0.964, -2.522e-10
-0.963, -2.055e-10
-0.962, -3.188e-10
-0.961, -1.662e-10
-0.960, -2.943e-10
-0.959, -2.507e-10
-0.958, -2.058e-10
-0.957, -3.210e-10
-0.956, -1.683e-10
-0.955, -2.913e-10
-0.954, -2.440e-10
-0.953, -1.965e-10
-0.952, -3.100e-10
-0.951, -1.588e-10
-0.950, -2.809e-10
-0.949, -2.342e-10
-0.948, -1.888e-10
-0.947, -3.002e-10
-0.946, -1.467e-10
-0.945, -2.743e-10
-0.944, -2.323e-10
-0.943, -1.903e-10
-0.942, -3.017e-10
-0.941, -1.499e-10
-0.940, -2.735e-10
-0.939, -2.262e-10
-0.938, -1.853e-10
-0.937, -2.947e-10
-0.936, -1.402e-10
-0.935, -2.635e-10
-0.934, -2.151e-10
-0.933, -1.712e-10
-0.932, -2.854e-10
-0.931, -1.373e-10
-0.930, -2.648e-10
-0.929, -2.178e-10
-0.928, -1.764e-10
-0.927, -2.853e-10
-0.926, -1.330e-10
-0.925, -2.591e-10
-0.924, -2.097e-10
-0.923, -1.687e-10
-0.922, -2.813e-10
-0.921, -1.293e-10
-0.920, -2.566e-10
-0.919, -2.082e-10
-0.918, -1.674e-10
-0.917, -2.814e-10
-0.916, -1.299e-10
-0.915, -2.576e-10
-0.914, -2.103e-10
-0.913, -1.698e-10
-0.912, -2.809e-10
-0.911, -1.294e-10
-0.910, -2.529e-10
-0.909, -2.049e-10
-0.908, -1.670e-10
-0.907, -2.808e-10
-0.906, -1.274e-10
-0.905, -2.540e-10
-0.904, -2.031e-10
-0.903, -1.662e-10
-0.902, -2.771e-10
-0.901, -1.257e-10
-0.900, -2.562e-10
-0.899, -2.061e-10
-0.898, -1.676e-10
-0.897, -2.784e-10
-0.896, -1.294e-10
-0.895, -2.579e-10
-0.894, -2.081e-10
-0.893, -1.715e-10
-0.892, -2.803e-10
-0.891, -1.315e-10
-0.890, -2.616e-10
-0.889, -2.102e-10
-0.888, -1.760e-10
-0.887, -2.854e-10
-0.886, -1.354e-10
-0.885, -2.623e-10
-0.884, -2.096e-10
-0.883, -1.729e-10
-0.882, -2.793e-10
-0.881, -1.268e-10
-0.880, -2.567e-10
-0.879, -2.053e-10
-0.878, -1.723e-10
-0.877, -2.819e-10
-0.876, -1.295e-10
-0.875, -2.574e-10
-0.874, -2.016e-10
-0.873, -1.655e-10
-0.872, -2.744e-10
-0.871, -1.234e-10
-0.870, -2.567e-10
-0.869, -2.055e-10
-0.868, -1.729e-10
-0.867, -2.774e-10
-0.866, -1.279e-10
-0.865, -2.579e-10
-0.864, -2.029e-10
-0.863, -1.674e-10
-0.862, -2.738e-10
-0.861, -1.193e-10
-0.860, -2.483e-10
-0.859, -1.945e-10
-0.858, -1.628e-10
-0.857, -2.716e-10
-0.856, -1.279e-10
-0.855, -2.597e-10
-0.854, -2.028e-10
-0.853, -1.726e-10
-0.852, -2.827e-10
-0.851, -1.425e-10
-0.850, -2.894e-10
-0.849, -2.589e-10
-0.848, -2.831e-10
-0.847, -3.573e-10
-0.846, -1.850e-10
-0.845, -3.039e-10
-0.844, -2.382e-10
-0.843, -1.966e-10
-0.842, -2.876e-10
-0.841, -1.278e-10
-0.840, -2.534e-10
-0.839, -1.912e-10
-0.838, -1.579e-10
-0.837, -2.580e-10
-0.836, -1.069e-10
-0.835, -2.405e-10
-0.834, -1.852e-10
-0.833, -1.558e-10
-0.832, -2.570e-10
-0.831, -1.028e-10
-0.830, -2.363e-10
-0.829, -1.772e-10
-0.828, -1.475e-10
-0.827, -2.538e-10
-0.826, -1.067e-10
-0.825, -2.384e-10
-0.824, -1.773e-10
-0.823, -1.476e-10
-0.822, -2.478e-10
-0.821, -9.587e-11
-0.820, -2.279e-10
-0.819, -1.705e-10
-0.818, -1.447e-10
-0.817, -2.463e-10
-0.816, -9.578e-11
-0.815, -2.254e-10
-0.814, -1.644e-10
-0.813, -1.402e-10
-0.812, -2.429e-10
-0.811, -9.256e-11
-0.810, -2.264e-10
-0.809, -1.638e-10
-0.808, -1.367e-10
-0.807, -2.385e-10
-0.806, -8.786e-11
-0.805, -2.232e-10
-0.804, -1.620e-10
-0.803, -1.390e-10
-0.802, -2.398e-10
-0.801, -8.915e-11
-0.800, -2.222e-10
-0.799, -1.625e-10
-0.798, -1.415e-10
-0.797, -2.442e-10
-0.796, -9.358e-11
-0.795, -2.244e-10
-0.794, -1.611e-10
-0.793, -1.373e-10
-0.792, -2.377e-10
-0.791, -8.624e-11
-0.790, -2.212e-10
-0.789, -1.623e-10
-0.788, -1.413e-10
-0.787, -2.427e-10
-0.786, -8.979e-11
-0.785, -2.237e-10
-0.784, -1.606e-10
-0.783, -1.417e-10
-0.782, -2.437e-10
-0.781, -9.402e-11
-0.780, -2.289e-10
-0.779, -1.639e-10
-0.778, -1.377e-10
-0.777, -2.360e-10
-0.776, -8.392e-11
-0.775, -2.186e-10
-0.774, -1.560e-10
-0.773, -1.336e-10
-0.772, -2.338e-10
-0.771, -8.571e-11
-0.770, -2.193e-10
-0.769, -1.576e-10
-0.768, -1.413e-10
-0.767, -2.452e-10
-0.766, -1.084e-10
-0.765, -2.531e-10
-0.764, -1.692e-10
-0.763, -1.425e-10
-0.762, -2.366e-10
-0.761, -8.485e-11
-0.760, -2.209e-10
-0.759, -1.527e-10
-0.758, -1.304e-10
-0.757, -2.264e-10
-0.756, -7.544e-11
-0.755, -2.106e-10
-0.754, -1.429e-10
-0.753, -1.255e-10
-0.752, -2.224e-10
-0.751, -7.398e-11
-0.750, -2.109e-10
-0.749, -1.422e-10
-0.748, -1.243e-10
-0.747, -2.245e-10
-0.746, -7.665e-11
-0.745, -2.137e-10
-0.744, -1.472e-10
-0.743, -1.314e-10
-0.742, -2.284e-10
-0.741, -7.902e-11
-0.740, -2.166e-10
-0.739, -1.475e-10
-0.738, -1.332e-10
-0.737, -2.288e-10
-0.736, -7.825e-11
-0.735, -2.129e-10
-0.734, -1.441e-10
-0.733, -1.312e-10
-0.732, -2.284e-10
-0.731, -7.856e-11
-0.730, -2.182e-10
-0.729, -1.497e-10
-0.728, -1.398e-10
-0.727, -2.344e-10
-0.726, -8.270e-11
-0.725, -2.208e-10
-0.724, -1.536e-10
-0.723, -1.515e-10
-0.722, -2.476e-10
-0.721, -9.567e-11
-0.720, -2.352e-10
-0.719, -1.666e-10
-0.718, -1.524e-10
-0.717, -2.455e-10
-0.716, -9.716e-11
-0.715, -2.400e-10
-0.714, -1.679e-10
-0.713, -1.518e-10
-0.712, -2.456e-10
-0.711, -9.973e-11
-0.710, -2.420e-10
-0.709, -1.664e-10
-0.708, -1.554e-10
-0.707, -2.469e-10
-0.706, -9.523e-11
-0.705, -2.333e-10
-0.704, -1.650e-10
-0.703, -1.537e-10
-0.702, -2.457e-10
-0.701, -9.770e-11
-0.700, -2.327e-10
-0.699, -1.584e-10
-0.698, -1.473e-10
-0.697, -2.345e-10
-0.696, -8.416e-11
-0.695, -2.222e-10
-0.694, -1.483e-10
-0.693, -1.385e-10
-0.692, -2.311e-10
-0.691, -8.172e-11
-0.690, -2.200e-10
-0.689, -1.458e-10
-0.688, -1.355e-10
-0.687, -2.266e-10
-0.686, -7.634e-11
-0.685, -2.149e-10
-0.684, -1.383e-10
-0.683, -1.304e-10
-0.682, -2.225e-10
-0.681, -6.938e-11
-0.680, -2.061e-10
-0.679, -1.310e-10
-0.678, -1.233e-10
-0.677, -2.125e-10
-0.676, -6.056e-11
-0.675, -1.991e-10
-0.674, -1.241e-10
-0.673, -1.205e-10
-0.672, -2.122e-10
-0.671, -6.538e-11
-0.670, -2.040e-10
-0.669, -1.280e-10
-0.668, -1.217e-10
-0.667, -2.128e-10
-0.666, -6.442e-11
-0.665, -2.059e-10
-0.664, -1.299e-10
-0.663, -1.243e-10
-0.662, -2.148e-10
-0.661, -6.630e-11
-0.660, -2.050e-10
-0.659, -1.258e-10
-0.658, -1.211e-10
-0.657, -2.104e-10
-0.656, -6.042e-11
-0.655, -1.981e-10
-0.654, -1.202e-10
-0.653, -1.166e-10
-0.652, -2.041e-10
-0.651, -5.887e-11
-0.650, -2.002e-10
-0.649, -1.252e-10
-0.648, -1.212e-10
-0.647, -2.078e-10
-0.646, -5.868e-11
-0.645, -1.973e-10
-0.644, -1.198e-10
-0.643, -1.181e-10
-0.642, -2.068e-10
-0.641, -6.047e-11
-0.640, -2.009e-10
-0.639, -1.245e-10
-0.638, -1.217e-10
-0.637, -2.087e-10
-0.636, -6.245e-11
-0.635, -2.059e-10
-0.634, -1.270e-10
-0.633, -1.265e-10
-0.632, -2.120e-10
-0.631, -6.511e-11
-0.630, -2.059e-10
-0.629, -1.279e-10
-0.628, -1.245e-10
-0.627, -2.071e-10
-0.626, -5.845e-11
-0.625, -1.974e-10
-0.624, -1.187e-10
-0.623, -1.202e-10
-0.622, -2.047e-10
-0.621, -5.758e-11
-0.620, -1.961e-10
-0.619, -1.121e-10
-0.618, -1.160e-10
-0.617, -2.004e-10
-0.616, -5.494e-11
-0.615, -1.957e-10
-0.614, -1.140e-10
-0.613, -1.169e-10
-0.612, -2.000e-10
-0.611, -5.123e-11
-0.610, -1.908e-10
-0.609, -1.069e-10
-0.608, -1.077e-10
-0.607, -1.922e-10
-0.606, -4.741e-11
-0.605, -1.909e-10
-0.604, -1.113e-10
-0.603, -1.165e-10
-0.602, -1.984e-10
-0.601, -5.037e-11
-0.600, -1.926e-10
-0.599, -1.045e-10
-0.598, -1.074e-10
-0.597, -1.918e-10
-0.596, -4.793e-11
-0.595, -1.882e-10
-0.594, -1.032e-10
-0.593, -1.065e-10
-0.592, -1.910e-10
-0.591, -4.697e-11
-0.590, -1.886e-10
-0.589, -1.044e-10
-0.588, -1.097e-10
-0.587, -1.890e-10
-0.586, -4.148e-11
-0.585, -1.835e-10
-0.584, -9.893e-11
-0.583, -1.036e-10
-0.582, -1.851e-10
-0.581, -3.973e-11
-0.580, -1.800e-10
-0.579, -9.453e-11
-0.578, -9.954e-11
-0.577, -1.816e-10
-0.576, -3.729e-11
-0.575, -1.809e-10
-0.574, -9.425e-11
-0.573, -1.005e-10
-0.572, -1.797e-10
-0.571, -3.407e-11
-0.570, -1.778e-10
-0.569, -9.250e-11
-0.568, -1.007e-10
-0.567, -1.812e-10
-0.566, -3.605e-11
-0.565, -1.778e-10
-0.564, -8.819e-11
-0.563, -9.693e-11
-0.562, -1.776e-10
-0.561, -3.449e-11
-0.560, -1.782e-10
-0.559, -8.840e-11
-0.558, -9.656e-11
-0.557, -1.738e-10
-0.556, -3.018e-11
-0.555, -1.733e-10
-0.554, -8.753e-11
-0.553, -9.677e-11
-0.552, -1.733e-10
-0.551, -2.873e-11
-0.550, -1.705e-10
-0.549, -8.264e-11
-0.548, -9.393e-11
-0.547, -1.718e-10
-0.546, -2.923e-11
-0.545, -1.729e-10
-0.544, -8.334e-11
-0.543, -9.336e-11
-0.542, -1.705e-10
-0.541, -2.699e-11
-0.540, -1.679e-10
-0.539, -7.972e-11
-0.538, -9.082e-11
-0.537, -1.657e-10
-0.536, -2.268e-11
-0.535, -1.659e-10
-0.534, -7.473e-11
-0.533, -8.622e-11
-0.532, -1.609e-10
-0.531, -1.926e-11
-0.530, -1.633e-10
-0.529, -7.200e-11
-0.528, -8.123e-11
-0.527, -1.528e-10
-0.526, -9.358e-12
-0.525, -1.520e-10
-0.524, -6.298e-11
-0.523, -7.565e-11
-0.522, -1.491e-10
-0.521, -7.410e-12
-0.520, -1.489e-10
-0.519, -5.632e-11
-0.518, -7.085e-11
-0.517, -1.455e-10
-0.516, -3.693e-12
-0.515, -1.479e-10
-0.514, -5.918e-11
-0.513, -7.204e-11
-0.512, -1.467e-10
-0.511, -5.574e-12
-0.510, -1.484e-10
-0.509, -5.860e-11
-0.508, -7.324e-11
-0.507, -1.472e-10
-0.506, -4.705e-12
-0.505, -1.504e-10
-0.504, -5.724e-11
-0.503, -7.571e-11
-0.502, -1.514e-10
-0.501, -1.258e-11
-0.500, -1.558e-10
-0.499, -6.354e-11
-0.498, -8.063e-11
-0.497, -1.529e-10
-0.496, -1.387e-11
-0.495, -1.565e-10
-0.494, -6.474e-11
-0.493, -8.104e-11
-0.492, -1.527e-10
-0.491, -1.221e-11
-0.490, -1.583e-10
-0.489, -6.583e-11
-0.488, -8.567e-11
-0.487, -1.602e-10
-0.486, -2.126e-11
-0.485, -1.659e-10
-0.484, -7.203e-11
-0.483, -8.912e-11
-0.482, -1.596e-10
-0.481, -2.000e-11
-0.480, -1.667e-10
-0.479, -7.323e-11
-0.478, -9.081e-11
-0.477, -1.630e-10
-0.476, -1.992e-11
-0.475, -1.635e-10
-0.474, -6.892e-11
-0.473, -8.748e-11
-0.472, -1.583e-10
-0.471, -1.866e-11
-0.470, -1.629e-10
-0.469, -6.903e-11
-0.468, -8.671e-11
-0.467, -1.565e-10
-0.466, -1.730e-11
-0.465, -1.625e-10
-0.464, -7.072e-11
-0.463, -9.370e-11
-0.462, -1.641e-10
-0.461, -2.507e-11
-0.460, -1.676e-10
-0.459, -6.857e-11
-0.458, -8.841e-11
-0.457, -1.577e-10
-0.456, -1.733e-11
-0.455, -1.601e-10
-0.454, -6.260e-11
-0.453, -8.303e-11
-0.452, -1.513e-10
-0.451, -1.155e-11
-0.450, -1.542e-10
-0.449, -5.908e-11
-0.448, -7.941e-11
-0.447, -1.468e-10
-0.446, -8.223e-12
-0.445, -1.527e-10
-0.444, -5.791e-11
-0.443, -7.903e-11
-0.442, -1.458e-10
-0.441, -6.667e-12
-0.440, -1.492e-10
-0.439, -5.273e-11
-0.438, -7.345e-11
-0.437, -1.414e-10
-0.436, -5.013e-12
-0.435, -1.508e-10
-0.434, -5.196e-11
-0.433, -7.444e-11
-0.432, -1.396e-10
-0.431, -1.198e-12
-0.430, -1.428e-10
-0.429, -4.588e-11
-0.428, -7.034e-11
-0.427, -1.342e-10
-0.426, 5.071e-12
-0.425, -1.350e-10
-0.424, -3.569e-11
-0.423, -5.925e-11
-0.422, -1.286e-10
-0.421, 5.940e-12
-0.420, -1.403e-10
-0.419, -4.306e-11
-0.418, -6.820e-11
-0.417, -1.348e-10
-0.416, 6.223e-13
-0.415, -1.450e-10
-0.414, -4.730e-11
-0.413, -7.401e-11
-0.412, -1.401e-10
-0.411, -5.088e-12
-0.410, -1.491e-10
-0.409, -4.967e-11
-0.408, -7.295e-11
-0.407, -1.351e-10
-0.406, -4.878e-13
-0.405, -1.455e-10
-0.404, -4.537e-11
-0.403, -6.953e-11
-0.402, -1.316e-10
-0.401, 5.585e-12
-0.400, -1.402e-10
-0.399, -4.106e-11
-0.398, -6.807e-11
-0.397, -1.287e-10
-0.396, 5.963e-12
-0.395, -1.385e-10
-0.394, -3.509e-11
-0.393, -6.219e-11
-0.392, -1.249e-10
-0.391, 8.501e-12
-0.390, -1.368e-10
-0.389, -3.608e-11
-0.388, -6.260e-11
-0.387, -1.239e-10
-0.386, 1.173e-11
-0.385, -1.302e-10
-0.384, -3.178e-11
-0.383, -6.144e-11
-0.382, -1.229e-10
-0.381, 1.201e-11
-0.380, -1.332e-10
-0.379, -3.376e-11
-0.378, -6.351e-11
-0.377, -1.258e-10
-0.376, 5.216e-12
-0.375, -1.391e-10
-0.374, -3.672e-11
-0.373, -6.863e-11
-0.372, -1.271e-10
-0.371, 6.477e-12
-0.370, -1.398e-10
-0.369, -3.988e-11
-0.368, -7.051e-11
-0.367, -1.297e-10
-0.366, 4.597e-12
-0.365, -1.381e-10
-0.364, -3.577e-11
-0.363, -6.650e-11
-0.362, -1.305e-10
-0.361, 7.521e-13
-0.360, -1.430e-10
-0.359, -3.657e-11
-0.358, -6.986e-11
-0.357, -1.292e-10
-0.356, 3.192e-12
-0.355, -1.425e-10
-0.354, -4.100e-11
-0.353, -7.331e-11
-0.352, -1.312e-10
-0.351, 1.213e-12
-0.350, -1.431e-10
-0.349, -4.082e-11
-0.348, -7.293e-11
-0.347, -1.303e-10
-0.346, 1.591e-12
-0.345, -1.404e-10
-0.344, -3.661e-11
-0.343, -7.128e-11
-0.342, -1.272e-10
-0.341, 3.442e-12
-0.340, -1.416e-10
-0.339, -3.731e-11
-0.338, -7.276e-11
-0.337, -1.282e-10
-0.336, 3.525e-12
-0.335, -1.383e-10
-0.334, -3.301e-11
-0.333, -6.414e-11
-0.332, -1.209e-10
-0.331, 9.598e-12
-0.330, -1.319e-10
-0.329, -2.556e-11
-0.328, -6.013e-11
-0.327, -1.137e-10
-0.326, 1.547e-11
-0.325, -1.287e-10
-0.324, -2.617e-11
-0.323, -6.368e-11
-0.322, -1.198e-10
-0.321, 1.320e-11
-0.320, -1.308e-10
-0.319, -2.382e-11
-0.318, -6.035e-11
-0.317, -1.146e-10
-0.316, 1.652e-11
-0.315, -1.250e-10
-0.314, -1.687e-11
-0.313, -5.477e-11
-0.312, -1.079e-10
-0.311, 1.985e-11
-0.310, -1.236e-10
-0.309, -1.953e-11
-0.308, -5.911e-11
-0.307, -1.119e-10
-0.306, 1.620e-11
-0.305, -1.293e-10
-0.304, -2.240e-11
-0.303, -6.060e-11
-0.302, -1.146e-10
-0.301, 1.589e-11
-0.300, -1.262e-10
-0.299, -1.858e-11
-0.298, -5.639e-11
-0.297, -1.089e-10
-0.296, 2.236e-11
-0.295, -1.212e-10
-0.294, -1.221e-11
-0.293, -5.032e-11
-0.292, -1.033e-10
-0.291, 2.499e-11
-0.290, -1.186e-10
-0.289, -1.321e-11
-0.288, -5.033e-11
-0.287, -1.035e-10
-0.286, 2.596e-11
-0.285, -1.163e-10
-0.284, -7.825e-12
-0.283, -4.465e-11
-0.282, -9.650e-11
-0.281, 3.095e-11
-0.280, -1.113e-10
-0.279, -3.225e-12
-0.278, -4.231e-11
-0.277, -9.072e-11
-0.276, 3.703e-11
-0.275, -1.056e-10
-0.274, 2.455e-12
-0.273, -3.840e-11
-0.272, -8.700e-11
-0.271, 4.074e-11
-0.270, -1.020e-10
-0.269, 8.823e-12
-0.268, -3.321e-11
-0.267, -8.398e-11
-0.266, 4.171e-11
-0.265, -9.969e-11
-0.264, 1.175e-11
-0.263, -2.988e-11
-0.262, -7.761e-11
-0.261, 4.808e-11
-0.260, -9.293e-11
-0.259, 1.704e-11
-0.258, -2.597e-11
-0.257, -7.585e-11
-0.256, 5.130e-11
-0.255, -8.980e-11
-0.254, 2.311e-11
-0.253, -1.921e-11
-0.252, -6.428e-11
-0.251, 6.042e-11
-0.250, -8.029e-11
-0.249, 3.115e-11
-0.248, -1.363e-11
-0.247, -6.184e-11
-0.246, 6.247e-11
-0.245, -8.267e-11
-0.244, 2.760e-11
-0.243, -1.629e-11
-0.242, -6.412e-11
-0.241, 5.892e-11
-0.240, -8.474e-11
-0.239, 2.700e-11
-0.238, -2.161e-11
-0.237, -7.130e-11
-0.236, 5.183e-11
-0.235, -9.301e-11
-0.234, 1.795e-11
-0.233, -3.066e-11
-0.232, -7.622e-11
-0.231, 4.533e-11
-0.230, -9.901e-11
-0.229, 1.243e-11
-0.228, -3.529e-11
-0.227, -8.095e-11
-0.226, 4.404e-11
-0.225, -1.000e-10
-0.224, 1.399e-11
-0.223, -3.246e-11
-0.222, -7.763e-11
-0.221, 4.589e-11
-0.220, -9.374e-11
-0.219, 2.370e-11
-0.218, -1.912e-11
-0.217, -5.899e-11
-0.216, 6.080e-11
-0.215, -8.796e-11
-0.214, 1.985e-11
-0.213, -3.200e-11
-0.212, -7.805e-11
-0.211, 4.370e-11
-0.210, -1.001e-10
-0.209, 1.395e-11
-0.208, -3.879e-11
-0.207, -8.435e-11
-0.206, 3.466e-11
-0.205, -1.098e-10
-0.204, 4.308e-12
-0.203, -4.744e-11
-0.202, -9.360e-11
-0.201, 2.561e-11
-0.200, -1.226e-10
-0.199, -9.945e-12
-0.198, -5.924e-11
-0.197, -9.999e-11
-0.196, 2.697e-11
-0.195, -1.101e-10
-0.194, 8.795e-12
-0.193, -3.314e-11
-0.192, -5.425e-11
-0.191, 6.446e-11
-0.190, -8.833e-11
-0.189, 2.518e-11
-0.188, -2.893e-11
-0.187, -6.919e-11
-0.186, 5.404e-11
-0.185, -8.952e-11
-0.184, 2.801e-11
-0.183, -2.394e-11
-0.182, -6.557e-11
-0.181, 5.147e-11
-0.180, -9.347e-11
-0.179, 2.034e-11
-0.178, -3.691e-11
-0.177, -8.012e-11
-0.176, 3.761e-11
-0.175, -1.054e-10
-0.174, 1.315e-11
-0.173, -3.840e-11
-0.172, -8.082e-11
-0.171, 3.848e-11
-0.170, -1.068e-10
-0.169, 1.098e-11
-0.168, -4.303e-11
-0.167, -7.986e-11
-0.166, 4.170e-11
-0.165, -9.940e-11
-0.164, 1.921e-11
-0.163, -3.519e-11
-0.162, -7.231e-11
-0.161, 4.650e-11
-0.160, -9.431e-11
-0.159, 2.784e-11
-0.158, -2.696e-11
-0.157, -6.417e-11
-0.156, 5.316e-11
-0.155, -9.020e-11
-0.154, 2.517e-11
-0.153, -2.913e-11
-0.152, -6.704e-11
-0.151, 5.197e-11
-0.150, -9.120e-11
-0.149, 2.653e-11
-0.148, -3.317e-11
-0.147, -7.255e-11
-0.146, 4.439e-11
-0.145, -9.779e-11
-0.144, 2.318e-11
-0.143, -3.604e-11
-0.142, -7.217e-11
-0.141, 4.359e-11
-0.140, -9.751e-11
-0.139, 2.051e-11
-0.138, -3.782e-11
-0.137, -7.199e-11
-0.136, 4.535e-11
-0.135, -9.704e-11
-0.134, 2.364e-11
-0.133, -3.548e-11
-0.132, -7.377e-11
-0.131, 4.376e-11
-0.130, -9.489e-11
-0.129, 2.834e-11
-0.128, -3.068e-11
-0.127, -6.554e-11
-0.126, 5.072e-11
-0.125, -9.059e-11
-0.124, 3.195e-11
-0.123, -2.618e-11
-0.122, -5.868e-11
-0.121, 5.905e-11
-0.120, -8.226e-11
-0.119, 3.646e-11
-0.118, -2.335e-11
-0.117, -5.939e-11
-0.116, 5.668e-11
-0.115, -8.482e-11
-0.114, 3.683e-11
-0.113, -2.100e-11
-0.112, -5.596e-11
-0.111, 5.862e-11
-0.110, -8.523e-11
-0.109, 3.633e-11
-0.108, -2.151e-11
-0.107, -5.451e-11
-0.106, 6.008e-11
-0.105, -8.367e-11
-0.104, 3.651e-11
-0.103, -2.663e-11
-0.102, -5.884e-11
-0.101, 5.506e-11
-0.100, -8.536e-11
-0.099, 3.620e-11
-0.098, -2.566e-11
-0.097, -6.092e-11
-0.096, 5.151e-11
-0.095, -8.891e-11
-0.094, 3.236e-11
-0.093, -2.774e-11
-0.092, -5.966e-11
-0.091, 5.434e-11
-0.090, -8.804e-11
-0.089, 3.313e-11
-0.088, -3.001e-11
-0.087, -6.242e-11
-0.086, 5.246e-11
-0.085, -8.806e-11
-0.084, 3.547e-11
-0.083, -2.689e-11
-0.082, -6.126e-11
-0.081, 5.107e-11
-0.080, -9.151e-11
-0.079, 3.251e-11
-0.078, -3.034e-11
-0.077, -6.068e-11
-0.076, 5.351e-11
-0.075, -8.789e-11
-0.074, 3.573e-11
-0.073, -2.702e-11
-0.072, -6.099e-11
-0.071, 5.350e-11
-0.070, -8.761e-11
-0.069, 3.690e-11
-0.068, -2.840e-11
-0.067, -5.698e-11
-0.066, 5.486e-11
-0.065, -8.654e-11
-0.064, 3.776e-11
-0.063, -2.410e-11
-0.062, -5.248e-11
-0.061, 6.083e-11
-0.060, -7.978e-11
-0.059, 4.511e-11
-0.058, -1.930e-11
-0.057, -4.827e-11
-0.056, 6.317e-11
-0.055, -7.656e-11
-0.054, 4.962e-11
-0.053, -1.372e-11
-0.052, -4.181e-11
-0.051, 6.748e-11
-0.050, -7.245e-11
-0.049, 5.363e-11
-0.048, -1.167e-11
-0.047, -4.015e-11
-0.046, 6.913e-11
-0.045, -7.276e-11
-0.044, 5.273e-11
-0.043, -1.414e-11
-0.042, -4.115e-11
-0.041, 7.079e-11
-0.040, -6.993e-11
-0.039, 5.674e-11
-0.038, -1.151e-11
-0.037, -3.812e-11
-0.036, 6.881e-11
-0.035, -7.161e-11
-0.034, 5.201e-11
-0.033, -1.427e-11
-0.032, -3.951e-11
-0.031, 6.703e-11
-0.030, -7.398e-11
-0.029, 4.817e-11
-0.028, -1.900e-11
-0.027, -4.434e-11
-0.026, 6.603e-11
-0.025, -7.508e-11
-0.024, 4.913e-11
-0.023, -1.862e-11
-0.022, -4.455e-11
-0.021, 6.336e-11
-0.020, -7.794e-11
-0.019, 4.823e-11
-0.018, -2.129e-11
-0.017, -4.731e-11
-0.016, 6.060e-11
-0.015, -7.845e-11
-0.014, 4.704e-11
-0.013, -2.229e-11
-0.012, -4.507e-11
-0.011, 6.255e-11
-0.010, -7.581e-11
-0.009, 5.095e-11
-0.008, -1.837e-11
-0.007, -4.332e-11
-0.006, 6.243e-11
-0.005, -7.533e-11
-0.004, 5.310e-11
-0.003, -1.731e-11
-0.002, -4.088e-11
-0.001, 6.674e-11
-0.000, -7.093e-11
0.001, 5.279e-11
0.002, -1.389e-11
0.003, -3.461e-11
0.004, 6.996e-11
0.005, -7.104e-11
0.006, 5.611e-11
0.007, -1.361e-11
0.008, -3.649e-11
0.009, 6.750e-11
0.010, -6.684e-11
0.011, 6.405e-11
0.012, -1.028e-11
0.013, -3.719e-11
0.014, 6.247e-11
0.015, -7.795e-11
0.016, 5.108e-11
0.017, -2.041e-11
0.018, -4.123e-11
0.019, 6.383e-11
0.020, -7.649e-11
0.021, 5.126e-11
0.022, -2.337e-11
0.023, -4.321e-11
0.024, 6.038e-11
0.025, -7.611e-11
0.026, 5.203e-11
0.027, -2.132e-11
0.028, -4.126e-11
0.029, 6.272e-11
0.030, -7.779e-11
0.031, 5.044e-11
0.032, -2.095e-11
0.033, -3.882e-11
0.034, 6.281e-11
0.035, -7.604e-11
0.036, 5.357e-11
0.037, -2.126e-11
0.038, -3.864e-11
0.039, 6.583e-11
0.040, -7.193e-11
0.041, 5.905e-11
0.042, -1.607e-11
0.043, -3.463e-11
0.044, 6.680e-11
0.045, -7.205e-11
0.046, 5.914e-11
0.047, -1.618e-11
0.048, -3.189e-11
0.049, 7.032e-11
0.050, -6.990e-11
0.051, 5.942e-11
0.052, -1.688e-11
0.053, -3.368e-11
0.054, 6.913e-11
0.055, -6.854e-11
0.056, 6.156e-11
0.057, -1.651e-11
0.058, -3.222e-11
0.059, 6.803e-11
0.060, -6.973e-11
0.061, 6.233e-11
0.062, -1.357e-11
0.063, -2.850e-11
0.064, 7.175e-11
0.065, -6.877e-11
0.066, 6.291e-11
0.067, -1.516e-11
0.068, -3.078e-11
0.069, 7.065e-11
0.070, -6.603e-11
0.071, 6.446e-11
0.072, -1.518e-11
0.073, -3.128e-11
0.074, 6.858e-11
0.075, -6.958e-11
0.076, 6.297e-11
0.077, -1.480e-11
0.078, -2.904e-11
0.079, 7.141e-11
0.080, -6.862e-11
0.081, 6.325e-11
0.082, -1.707e-11
0.083, -2.994e-11
0.084, 7.061e-11
0.085, -6.755e-11
0.086, 6.638e-11
0.087, -1.473e-11
0.088, -2.838e-11
0.089, 6.942e-11
0.090, -6.874e-11
0.091, 6.430e-11
0.092, -1.288e-11
0.093, -2.535e-11
0.094, 7.421e-11
0.095, -6.532e-11
0.096, 6.625e-11
0.097, -1.496e-11
0.098, -2.586e-11
0.099, 7.047e-11
0.100, -6.593e-11
0.101, 6.840e-11
0.102, -1.468e-11
0.103, -2.784e-11
0.104, 6.967e-11
0.105, -6.633e-11
0.106, 6.642e-11
0.107, -1.243e-11
0.108, -2.422e-11
0.109, 7.299e-11
0.110, -6.586e-11
0.111, 6.532e-11
0.112, -1.647e-11
0.113, -2.472e-11
0.114, 7.297e-11
0.115, -6.430e-11
0.116, 6.973e-11
0.117, -1.511e-11
0.118, -2.553e-11
0.119, 6.933e-11
0.120, -6.736e-11
0.121, 6.912e-11
0.122, -1.326e-11
0.123, -2.142e-11
0.124, 7.304e-11
0.125, -6.541e-11
0.126, 6.940e-11
0.127, -1.593e-11
0.128, -2.330e-11
0.129, 7.558e-11
0.130, -6.287e-11
0.131, 7.135e-11
0.132, -1.437e-11
0.133, -2.439e-11
0.134, 7.066e-11
0.135, -6.574e-11
0.136, 7.026e-11
0.137, -1.449e-11
0.138, -2.058e-11
0.139, 7.329e-11
0.140, -6.585e-11
0.141, 7.083e-11
0.142, -1.421e-11
0.143, -2.040e-11
0.144, 7.426e-11
0.145, -6.262e-11
0.146, 7.268e-11
0.147, -1.452e-11
0.148, -2.041e-11
0.149, 7.208e-11
0.150, -6.431e-11
0.151, 7.345e-11
0.152, -1.227e-11
0.153, -1.787e-11
0.154, 7.462e-11
0.155, -6.403e-11
0.156, 7.177e-11
0.157, -1.307e-11
0.158, -1.799e-11
0.159, 7.461e-11
0.160, -6.129e-11
0.161, 7.509e-11
0.162, -1.486e-11
0.163, -1.987e-11
0.164, 7.351e-11
0.165, -6.092e-11
0.166, 7.763e-11
0.167, -1.124e-11
0.168, -1.635e-11
0.169, 7.458e-11
0.170, -6.162e-11
0.171, 7.585e-11
0.172, -1.174e-11
0.173, -1.440e-11
0.174, 7.751e-11
0.175, -5.879e-11
0.176, 7.750e-11
0.177, -1.294e-11
0.178, -1.530e-11
0.179, 7.582e-11
0.180, -5.929e-11
0.181, 7.965e-11
0.182, -1.069e-11
0.183, -1.256e-11
0.184, 7.512e-11
0.185, -6.009e-11
0.186, 7.855e-11
0.187, -1.081e-11
0.188, -1.209e-11
0.189, 7.825e-11
0.190, -5.667e-11
0.191, 8.021e-11
0.192, -1.210e-11
0.193, -1.210e-11
0.194, 7.647e-11
0.195, -5.688e-11
0.196, 8.373e-11
0.197, -8.873e-12
0.198, -9.268e-12
0.199, 7.841e-11
0.200, -5.670e-11
0.201, 8.351e-11
0.202, -8.888e-12
0.203, -7.614e-12
0.204, 8.135e-11
0.205, -5.367e-11
0.206, 8.409e-11
0.207, -9.492e-12
0.208, -6.451e-12
0.209, 8.005e-11
0.210, -5.202e-11
0.211, 8.761e-11
0.212, -6.266e-12
0.213, -4.502e-12
0.214, 8.190e-11
0.215, -5.213e-11
0.216, 8.808e-11
0.217, -5.005e-12
0.218, -6.874e-13
0.219, 8.592e-11
0.220, -5.038e-11
0.221, 8.886e-11
0.222, -5.216e-12
0.223, -1.390e-12
0.224, 8.541e-11
0.225, -4.706e-11
0.226, 9.385e-11
0.227, -2.187e-12
0.228, 1.345e-12
0.229, 8.667e-11
0.230, -4.687e-11
0.231, 9.511e-11
0.232, -3.366e-13
0.233, 5.159e-12
0.234, 8.950e-11
0.235, -4.443e-11
0.236, 9.608e-11
0.237, -6.461e-13
0.238, 5.930e-12
0.239, 9.194e-11
0.240, -4.062e-11
0.241, 1.013e-10
0.242, 3.267e-12
0.243, 8.075e-12
0.244, 9.262e-11
0.245, -4.132e-11
0.246, 1.017e-10
0.247, 6.099e-12
0.248, 1.209e-11
0.249, 9.643e-11
0.250, -3.751e-11
0.251, 1.034e-10
0.252, 7.754e-12
0.253, 1.502e-11
0.254, 9.956e-11
0.255, -3.251e-11
0.256, 1.096e-10
0.257, 1.078e-11
0.258, 1.736e-11
0.259, 9.886e-11
0.260, -3.115e-11
0.261, 1.125e-10
0.262, 1.479e-11
0.263, 2.402e-11
0.264, 1.055e-10
0.265, -2.852e-11
0.266, 1.148e-10
0.267, 1.635e-11
0.268, 2.538e-11
0.269, 1.098e-10
0.270, -2.195e-11
0.271, 1.204e-10
0.272, 2.075e-11
0.273, 2.900e-11
0.274, 1.115e-10
0.275, -2.099e-11
0.276, 1.235e-10
0.277, 2.614e-11
0.278, 3.615e-11
0.279, 1.169e-10
0.280, -1.649e-11
0.281, 1.278e-10
0.282, 2.769e-11
0.283, 3.948e-11
0.284, 1.214e-10
0.285, -1.012e-11
0.286, 1.333e-10
0.287, 3.230e-11
0.288, 4.152e-11
0.289, 1.226e-10
0.290, -8.267e-12
0.291, 1.383e-10
0.292, 3.778e-11
0.293, 4.868e-11
0.294, 1.308e-10
0.295, -2.195e-12
0.296, 1.431e-10
0.297, 4.150e-11
0.298, 5.436e-11
0.299, 1.352e-10
0.300, 5.057e-12
0.301, 1.506e-10
0.302, 4.786e-11
0.303, 5.846e-11
0.304, 1.388e-10
0.305, 9.362e-12
0.306, 1.568e-10
0.307, 5.462e-11
0.308, 6.778e-11
0.309, 1.466e-10
0.310, 1.524e-11
0.311, 1.607e-10
0.312, 5.873e-11
0.313, 7.424e-11
0.314, 1.528e-10
0.315, 2.269e-11
0.316, 1.688e-10
0.317, 6.647e-11
0.318, 8.002e-11
0.319, 1.576e-10
0.320, 2.866e-11
0.321, 1.761e-10
0.322, 7.284e-11
0.323, 8.767e-11
0.324, 1.649e-10
0.325, 3.483e-11
0.326, 1.822e-10
0.327, 7.882e-11
0.328, 9.511e-11
0.329, 1.730e-10
0.330, 4.326e-11
0.331, 1.902e-10
0.332, 8.646e-11
0.333, 1.020e-10
0.334, 1.795e-10
0.335, 5.051e-11
0.336, 1.996e-10
0.337, 9.489e-11
0.338, 1.111e-10
0.339, 1.870e-10
0.340, 5.875e-11
0.341, 2.063e-10
0.342, 1.030e-10
0.343, 1.204e-10
0.344, 1.959e-10
0.345, 6.718e-11
0.346, 2.142e-10
0.347, 1.096e-10
0.348, 1.281e-10
0.349, 2.036e-10
0.350, 7.561e-11
0.351, 2.265e-10
0.352, 1.191e-10
0.353, 1.387e-10
0.354, 2.129e-10
0.355, 8.453e-11
0.356, 2.349e-10
0.357, 1.287e-10
0.358, 1.495e-10
0.359, 2.250e-10
0.360, 9.463e-11
0.361, 2.439e-10
0.362, 1.365e-10
0.363, 1.580e-10
0.364, 2.335e-10
0.365, 1.063e-10
0.366, 2.572e-10
0.367, 1.497e-10
0.368, 1.711e-10
0.369, 2.454e-10
0.370, 1.171e-10
0.371, 2.684e-10
0.372, 1.622e-10
0.373, 1.851e-10
0.374, 2.576e-10
0.375, 1.298e-10
0.376, 2.820e-10
0.377, 1.732e-10
0.378, 1.983e-10
0.379, 2.727e-10
0.380, 1.471e-10
0.381, 3.004e-10
0.382, 1.918e-10
0.383, 2.137e-10
0.384, 2.884e-10
0.385, 1.627e-10
0.386, 3.152e-10
0.387, 2.083e-10
0.388, 2.338e-10
0.389, 3.077e-10
0.390, 1.825e-10
0.391, 3.341e-10
0.392, 2.271e-10
0.393, 2.545e-10
0.394, 3.293e-10
0.395, 2.051e-10
0.396, 3.580e-10
0.397, 2.522e-10
0.398, 2.754e-10
0.399, 3.496e-10
0.400, 2.271e-10
0.401, 3.812e-10
0.402, 2.758e-10
0.403, 3.020e-10
0.404, 3.754e-10
0.405, 2.536e-10
0.406, 4.059e-10
0.407, 3.007e-10
0.408, 3.314e-10
0.409, 4.078e-10
0.410, 2.900e-10
0.411, 4.451e-10
0.412, 3.392e-10
0.413, 3.714e-10
0.414, 4.503e-10
0.415, 3.315e-10
0.416, 4.899e-10
0.417, 3.867e-10
0.418, 4.171e-10
0.419, 4.943e-10
0.420, 3.766e-10
0.421, 5.360e-10
0.422, 4.350e-10
0.423, 4.701e-10
0.424, 5.478e-10
0.425, 4.327e-10
0.426, 5.904e-10
0.427, 4.884e-10
0.428, 5.245e-10
0.429, 6.039e-10
0.430, 4.915e-10
0.431, 6.548e-10
0.432, 5.535e-10
0.433, 5.912e-10
0.434, 6.685e-10
0.435, 5.564e-10
0.436, 7.193e-10
0.437, 6.195e-10
0.438, 6.582e-10
0.439, 7.402e-10
0.440, 6.280e-10
0.441, 7.905e-10
0.442, 6.935e-10
0.443, 7.329e-10
0.444, 8.136e-10
0.445, 7.027e-10
0.446, 8.680e-10
0.447, 7.668e-10
0.448, 8.050e-10
0.449, 8.822e-10
0.450, 7.720e-10
0.451, 9.347e-10
0.452, 8.366e-10
0.453, 8.782e-10
0.454, 9.582e-10
0.455, 8.506e-10
0.456, 1.012e-9
0.457, 9.096e-10
0.458, 9.512e-10
0.459, 1.031e-9
0.460, 9.212e-10
0.461, 1.084e-9
0.462, 9.815e-10
0.463, 1.022e-9
0.464, 1.097e-9
0.465, 9.845e-10
0.466, 1.148e-9
0.467, 1.048e-9
0.468, 1.087e-9
0.469, 1.160e-9
0.470, 1.051e-9
0.471, 1.209e-9
0.472, 1.107e-9
0.473, 1.149e-9
0.474, 1.224e-9
0.475, 1.115e-9
0.476, 1.272e-9
0.477, 1.167e-9
0.478, 1.208e-9
0.479, 1.278e-9
0.480, 1.162e-9
0.481, 1.319e-9
0.482, 1.223e-9
0.483, 1.266e-9
0.484, 1.338e-9
0.485, 1.231e-9
0.486, 1.380e-9
0.487, 1.283e-9
0.488, 1.329e-9
0.489, 1.406e-9
0.490, 1.299e-9
0.491, 1.456e-9
0.492, 1.359e-9
0.493, 1.404e-9
0.494, 1.477e-9
0.495, 1.369e-9
0.496, 1.536e-9
0.497, 1.442e-9
0.498, 1.492e-9
0.499, 1.571e-9
0.500, 1.461e-9
0.501, 1.627e-9
0.502, 1.528e-9
0.503, 1.577e-9
0.504, 1.657e-9
0.505, 1.553e-9
0.506, 1.724e-9
0.507, 1.624e-9
0.508, 1.675e-9
0.509, 1.754e-9
0.510, 1.650e-9
0.511, 1.820e-9
0.512, 1.724e-9
0.513, 1.776e-9
0.514, 1.857e-9
0.515, 1.754e-9
0.516, 1.920e-9
0.517, 1.820e-9
0.518, 1.871e-9
0.519, 1.950e-9
0.520, 1.849e-9
0.521, 2.016e-9
0.522, 1.916e-9
0.523, 1.964e-9
0.524, 2.041e-9
0.525, 1.943e-9
0.526, 2.111e-9
0.527, 2.015e-9
0.528, 2.067e-9
0.529, 2.145e-9
0.530, 2.041e-9
0.531, 2.210e-9
0.532, 2.110e-9
0.533, 2.161e-9
0.534, 2.242e-9
0.535, 2.138e-9
0.536, 2.304e-9
0.537, 2.199e-9
0.538, 2.250e-9
0.539, 2.326e-9
0.540, 2.221e-9
0.541, 2.389e-9
0.542, 2.289e-9
0.543, 2.341e-9
0.544, 2.420e-9
0.545, 2.319e-9
0.546, 2.488e-9
0.547, 2.381e-9
0.548, 2.434e-9
0.549, 2.509e-9
0.550, 2.409e-9
0.551, 2.579e-9
0.552, 2.483e-9
0.553, 2.536e-9
0.554, 2.607e-9
0.555, 2.506e-9
0.556, 2.679e-9
0.557, 2.579e-9
0.558, 2.628e-9
0.559, 2.696e-9
0.560, 2.598e-9
0.561, 2.767e-9
0.562, 2.667e-9
0.563, 2.716e-9
0.564, 2.789e-9
0.565, 2.693e-9
0.566, 2.865e-9
0.567, 2.762e-9
0.568, 2.818e-9
0.569, 2.892e-9
0.570, 2.790e-9
0.571, 2.958e-9
0.572, 2.860e-9
0.573, 2.920e-9
0.574, 2.992e-9
0.575, 2.896e-9
0.576, 3.073e-9
0.577, 2.982e-9
0.578, 3.043e-9
0.579, 3.125e-9
0.580, 3.037e-9
0.581, 3.215e-9
0.582, 3.118e-9
0.583, 3.179e-9
0.584, 3.250e-9
0.585, 3.159e-9
0.586, 3.332e-9
0.587, 3.253e-9
0.588, 3.317e-9
0.589, 3.379e-9
0.590, 3.292e-9
0.591, 3.464e-9
0.592, 3.370e-9
0.593, 3.421e-9
0.594, 3.493e-9
0.595, 3.404e-9
0.596, 3.577e-9
0.597, 3.474e-9
0.598, 3.535e-9
0.599, 3.607e-9
0.600, 3.516e-9
0.601, 3.692e-9
0.602, 3.594e-9
0.603, 3.646e-9
0.604, 3.711e-9
0.605, 3.603e-9
0.606, 3.760e-9
0.607, 3.643e-9
0.608, 3.689e-9
0.609, 3.736e-9
0.610, 3.604e-9
0.611, 3.743e-9
0.612, 3.617e-9
0.613, 3.650e-9
0.614, 3.691e-9
0.615, 3.559e-9
0.616, 3.688e-9
0.617, 3.540e-9
0.618, 3.555e-9
0.619, 3.576e-9
0.620, 3.444e-9
0.621, 3.579e-9
0.622, 3.454e-9
0.623, 3.498e-9
0.624, 3.550e-9
0.625, 3.435e-9
0.626, 3.589e-9
0.627, 3.465e-9
0.628, 3.506e-9
0.629, 3.554e-9
0.630, 3.446e-9
0.631, 3.600e-9
0.632, 3.482e-9
0.633, 3.522e-9
0.634, 3.568e-9
0.635, 3.450e-9
0.636, 3.603e-9
0.637, 3.485e-9
0.638, 3.531e-9
0.639, 3.586e-9
0.640, 3.476e-9
0.641, 3.631e-9
0.642, 3.508e-9
0.643, 3.548e-9
0.644, 3.601e-9
0.645, 3.488e-9
0.646, 3.638e-9
0.647, 3.511e-9
0.648, 3.558e-9
0.649, 3.601e-9
0.650, 3.490e-9
0.651, 3.655e-9
0.652, 3.537e-9
0.653, 3.589e-9
0.654, 3.633e-9
0.655, 3.513e-9
0.656, 3.664e-9
0.657, 3.543e-9
0.658, 3.592e-9
0.659, 3.636e-9
0.660, 3.524e-9
0.661, 3.676e-9
0.662, 3.547e-9
0.663, 3.594e-9
0.664, 3.646e-9
0.665, 3.532e-9
0.666, 3.683e-9
0.667, 3.555e-9
0.668, 3.598e-9
0.669, 3.647e-9
0.670, 3.533e-9
0.671, 3.681e-9
0.672, 3.560e-9
0.673, 3.614e-9
0.674, 3.661e-9
0.675, 3.559e-9
0.676, 3.718e-9
0.677, 3.590e-9
0.678, 3.638e-9
0.679, 3.687e-9
0.680, 3.579e-9
0.681, 3.738e-9
0.682, 3.621e-9
0.683, 3.669e-9
0.684, 3.716e-9
0.685, 3.605e-9
0.686, 3.752e-9
0.687, 3.628e-9
0.688, 3.683e-9
0.689, 3.729e-9
0.690, 3.623e-9
0.691, 3.783e-9
0.692, 3.664e-9
0.693, 3.703e-9
0.694, 3.747e-9
0.695, 3.637e-9
0.696, 3.786e-9
0.697, 3.662e-9
0.698, 3.710e-9
0.699, 3.756e-9
0.700, 3.649e-9
0.701, 3.804e-9
0.702, 3.683e-9
0.703, 3.739e-9
0.704, 3.788e-9
0.705, 3.681e-9
0.706, 3.831e-9
0.707, 3.701e-9
0.708, 3.746e-9
0.709, 3.790e-9
0.710, 3.684e-9
0.711, 3.843e-9
0.712, 3.720e-9
0.713, 3.770e-9
0.714, 3.818e-9
0.715, 3.715e-9
0.716, 3.875e-9
0.717, 3.752e-9
0.718, 3.803e-9
0.719, 3.843e-9
0.720, 3.736e-9
0.721, 3.892e-9
0.722, 3.769e-9
0.723, 3.823e-9
0.724, 3.865e-9
0.725, 3.762e-9
0.726, 3.920e-9
0.727, 3.799e-9
0.728, 3.857e-9
0.729, 3.901e-9
0.730, 3.792e-9
0.731, 3.945e-9
0.732, 3.819e-9
0.733, 3.871e-9
0.734, 3.918e-9
0.735, 3.809e-9
0.736, 3.969e-9
0.737, 3.846e-9
0.738, 3.897e-9
0.739, 3.932e-9
0.740, 3.821e-9
0.741, 3.975e-9
0.742, 3.845e-9
0.743, 3.899e-9
0.744, 3.941e-9
0.745, 3.833e-9
0.746, 3.986e-9
0.747, 3.858e-9
0.748, 3.914e-9
0.749, 3.952e-9
0.750, 3.847e-9
0.751, 4.002e-9
0.752, 3.877e-9
0.753, 3.937e-9
0.754, 3.979e-9
0.755, 3.880e-9
0.756, 4.039e-9
0.757, 3.914e-9
0.758, 3.975e-9
0.759, 4.015e-9
0.760, 3.909e-9
0.761, 4.057e-9
0.762, 3.927e-9
0.763, 3.985e-9
0.764, 4.028e-9
0.765, 3.921e-9
0.766, 4.074e-9
0.767, 3.950e-9
0.768, 4.003e-9
0.769, 4.034e-9
0.770, 3.927e-9
0.771, 4.081e-9
0.772, 3.953e-9
0.773, 4.007e-9
0.774, 4.043e-9
0.775, 3.937e-9
0.776, 4.089e-9
0.777, 3.965e-9
0.778, 4.035e-9
0.779, 4.080e-9
0.780, 3.974e-9
0.781, 4.126e-9
0.782, 4.005e-9
0.783, 4.059e-9
0.784, 4.097e-9
0.785, 3.998e-9
0.786, 4.152e-9
0.787, 4.026e-9
0.788, 4.086e-9
0.789, 4.128e-9
0.790, 4.019e-9
0.791, 4.167e-9
0.792, 4.038e-9
0.793, 4.098e-9
0.794, 4.131e-9
0.795, 4.020e-9
0.796, 4.173e-9
0.797, 4.043e-9
0.798, 4.095e-9
0.799, 4.129e-9
0.800, 4.022e-9
0.801, 4.173e-9
0.802, 4.046e-9
0.803, 4.104e-9
0.804, 4.140e-9
0.805, 4.036e-9
0.806, 4.194e-9
0.807, 4.073e-9
0.808, 4.131e-9
0.809, 4.165e-9
0.810, 4.062e-9
0.811, 4.215e-9
0.812, 4.089e-9
0.813, 4.150e-9
0.814, 4.185e-9
0.815, 4.082e-9
0.816, 4.232e-9
0.817, 4.099e-9
0.818, 4.139e-9
0.819, 4.178e-9
0.820, 4.086e-9
0.821, 4.246e-9
0.822, 4.111e-9
0.823, 4.168e-9
0.824, 4.225e-9
0.825, 4.140e-9
0.826, 4.303e-9
0.827, 4.176e-9
0.828, 4.231e-9
0.829, 4.260e-9
0.830, 4.158e-9
0.831, 4.330e-9
0.832, 4.213e-9
0.833, 4.288e-9
0.834, 4.342e-9
0.835, 4.256e-9
0.836, 4.425e-9
0.837, 4.305e-9
0.838, 4.378e-9
0.839, 4.415e-9
0.840, 4.311e-9
0.841, 4.461e-9
0.842, 4.328e-9
0.843, 4.392e-9
0.844, 4.436e-9
0.845, 4.339e-9
0.846, 4.509e-9
0.847, 4.392e-9
0.848, 4.464e-9
0.849, 4.506e-9
0.850, 4.403e-9
0.851, 4.555e-9
0.852, 4.410e-9
0.853, 4.460e-9
0.854, 4.472e-9
0.855, 4.356e-9
0.856, 4.503e-9
0.857, 4.368e-9
0.858, 4.421e-9
0.859, 4.449e-9
0.860, 4.348e-9
0.861, 4.513e-9
0.862, 4.388e-9
0.863, 4.452e-9
0.864, 4.489e-9
0.865, 4.388e-9
0.866, 4.555e-9
0.867, 4.431e-9
0.868, 4.497e-9
0.869, 4.528e-9
0.870, 4.430e-9
0.871, 4.593e-9
0.872, 4.464e-9
0.873, 4.530e-9
0.874, 4.566e-9
0.875, 4.464e-9
0.876, 4.625e-9
0.877, 4.499e-9
0.878, 4.565e-9
0.879, 4.601e-9
0.880, 4.500e-9
0.881, 4.665e-9
0.882, 4.535e-9
0.883, 4.603e-9
0.884, 4.640e-9
0.885, 4.544e-9
0.886, 4.709e-9
0.887, 4.583e-9
0.888, 4.651e-9
0.889, 4.683e-9
0.890, 4.587e-9
0.891, 4.749e-9
0.892, 4.616e-9
0.893, 4.675e-9
0.894, 4.701e-9
0.895, 4.596e-9
0.896, 4.753e-9
0.897, 4.625e-9
0.898, 4.694e-9
0.899, 4.722e-9
0.900, 4.614e-9
0.901, 4.766e-9
0.902, 4.631e-9
0.903, 4.693e-9
0.904, 4.726e-9
0.905, 4.631e-9
0.906, 4.787e-9
0.907, 4.653e-9
0.908, 4.723e-9
0.909, 4.761e-9
0.910, 4.661e-9
0.911, 4.816e-9
0.912, 4.686e-9
0.913, 4.757e-9
0.914, 4.780e-9
0.915, 4.680e-9
0.916, 4.838e-9
0.917, 4.711e-9
0.918, 4.786e-9
0.919, 4.815e-9
0.920, 4.721e-9
0.921, 4.882e-9
0.922, 4.743e-9
0.923, 4.804e-9
0.924, 4.832e-9
0.925, 4.736e-9
0.926, 4.895e-9
0.927, 4.760e-9
0.928, 4.828e-9
0.929, 4.859e-9
0.930, 4.762e-9
0.931, 4.918e-9
0.932, 4.790e-9
0.933, 4.860e-9
0.934, 4.883e-9
0.935, 4.790e-9
0.936, 4.948e-9
0.937, 4.823e-9
0.938, 4.894e-9
0.939, 4.918e-9
0.940, 4.823e-9
0.941, 4.981e-9
0.942, 4.848e-9
0.943, 4.916e-9
0.944, 4.941e-9
0.945, 4.848e-9
0.946, 5.003e-9
0.947, 4.870e-9
0.948, 4.943e-9
0.949, 4.976e-9
0.950, 4.881e-9
0.951, 5.040e-9
0.952, 4.911e-9
0.953, 4.985e-9
0.954, 5.008e-9
0.955, 4.914e-9
0.956, 5.071e-9
0.957, 4.942e-9
0.958, 5.019e-9
0.959, 5.044e-9
0.960, 4.950e-9
0.961, 5.110e-9
0.962, 4.991e-9
0.963, 5.062e-9
0.964, 5.087e-9
0.965, 4.998e-9
0.966, 5.148e-9
0.967, 5.020e-9
0.968, 5.095e-9
0.969, 5.121e-9
0.970, 5.033e-9
0.971, 5.191e-9
0.972, 5.066e-9
0.973, 5.138e-9
0.974, 5.160e-9
0.975, 5.064e-9
0.976, 5.216e-9
0.977, 5.088e-9
0.978, 5.160e-9
0.979, 5.183e-9
0.980, 5.097e-9
0.981, 5.255e-9
0.982, 5.133e-9
0.983, 5.216e-9
0.984, 5.252e-9
0.985, 5.180e-9
0.986, 5.350e-9
0.987, 5.230e-9
0.988, 5.306e-9
0.989, 5.338e-9
0.990, 5.254e-9
0.991, 5.410e-9
0.992, 5.281e-9
0.993, 5.353e-9
0.994, 5.373e-9
0.995, 5.278e-9
0.996, 5.423e-9
0.997, 5.290e-9
0.998, 5.359e-9
0.999, 5.389e-9
